%time,field.xn,field.yn,field.xbd,field.ybd,field.xbdd,field.ybdd
1495620692302911742,4.64231208144e-05,1.25826663816e-06,0.000369531167839,0.0,0.0,0.0
1495620692353882959,6.93478734734e-05,2.70751783528e-06,0.00045941032357,0.0,0.0,0.0
1495620692402669610,9.66561776656e-05,5.12941884473e-06,0.000548309796503,0.0,0.0,0.0
1495620692453982560,0.000238322979999,2.19004952655e-05,0.00285312123034,0.0,0.0,0.0
1495620692504205636,0.00700700415895,0.00102932758855,0.136864830034,0.0,0.0,0.0
1495620692553265436,0.0185078735384,0.00310755731166,0.23374262364,0.0,0.0,0.0
1495620692602751617,0.0350998339432,0.00665661240421,0.339345807178,0.0,0.0,0.0
1495620692653042161,0.0564667284168,0.0119685421666,0.440345672057,0.0,0.0,0.0
1495620692703761320,0.0824726850328,0.0193783960802,0.540820012402,0.0,0.0,0.0
1495620692752245418,0.112932959273,0.0292175615022,0.640199182437,0.0,0.0,0.0
1495620692803655168,0.147641249202,0.0418180461774,0.738495119519,0.0,0.0,0.0
1495620692853957933,0.186395583279,0.057520750666,0.836295004879,0.0,0.0,0.0
1495620692905349455,0.228942912301,0.0766540196139,0.93302887149,0.0,0.0,0.0
1495620692953373229,0.275032153947,0.099552583081,1.02928371295,0.0,0.0,0.0
1495620693004144071,0.324206756659,0.126453681204,1.12103713267,0.0,0.0,0.0
1495620693052739287,0.376219055966,0.157699110263,1.2135165621,0.0,0.0,0.0
1495620693103724891,0.430742342428,0.193594100423,1.30556333975,0.0,0.0,0.0
1495620693153636475,0.4874467884,0.234446533238,1.3977575555,0.0,0.0,0.0
1495620693203636409,0.545950906198,0.280532966948,1.4895222283,0.0,0.0,0.0
1495620693254043796,0.605846899184,0.332110888574,1.58086204015,0.0,0.0,0.0
1495620693303632086,0.666701391941,0.389415907471,1.67178162205,0.0,0.0,0.0
1495620693353264724,0.728098407681,0.452698412483,1.76343630248,0.0,0.0,0.0
1495620693403027127,0.789534941498,0.522122433408,1.8540919469,0.0,0.0,0.0
1495620693452983550,0.85052666417,0.597863432283,1.94491019278,0.0,0.0,0.0
1495620693504236506,0.910294586355,0.679730639652,2.02725865787,0.0,0.0,0.0
1495620693553948205,0.968411025229,0.767944159689,2.11273714264,0.0,0.0,0.0
1495620693604323395,1.0243389354,0.86257426192,2.19843465992,0.0,0.0,0.0
1495620693653381310,1.07751027645,0.963628016916,2.28377344825,0.0,0.0,0.0
1495620693703512126,1.1268063151,1.06967191443,2.33883797013,0.0,0.0,0.0
1495620693754428377,1.1699816234,1.17487240435,2.27431311177,0.0,0.0,0.0
1495620693803454095,1.20769564718,1.27894699533,2.21394381833,0.0,0.0,0.0
1495620693853319095,1.2405061925,1.38147928894,2.1530818022,0.0,0.0,0.0
1495620693904327048,1.26895813253,1.4821214697,2.09173243405,0.0,0.0,0.0
1495620693953278175,1.29358556117,1.58061297078,2.03047640003,0.0,0.0,0.0
1495620694003798077,1.3148054836,1.67641135125,1.96240819487,0.0,0.0,0.0
1495620694054433776,1.33311873501,1.76943753453,1.89623268113,0.0,0.0,0.0
1495620694103415703,1.34896100141,1.85950752909,1.82905235851,0.0,0.0,0.0
1495620694153291319,1.36274682888,1.94652371042,1.76202892741,0.0,0.0,0.0
1495620694204418701,1.37485120001,2.03038390705,1.69458530373,0.0,0.0,0.0
1495620694253838533,1.38560933068,2.11097657309,1.62615069357,0.0,0.0,0.0
1495620694304376873,1.39533050461,2.18826192609,1.55788664666,0.0,0.0,0.0
1495620694354891746,1.40427582543,2.26212549085,1.48806518189,0.0,0.0,0.0
1495620694403200892,1.41268336701,2.33254685217,1.4184293971,0.0,0.0,0.0
1495620694453534179,1.4207442683,2.3994253689,1.34725114638,0.0,0.0,0.0
1495620694503239661,1.42860421801,2.46260818121,1.27339649464,0.0,0.0,0.0
1495620694555147938,1.43638849487,2.52206054292,1.19919611062,0.0,0.0,0.0
1495620694602509687,1.44418926174,2.57774952973,1.1246537628,0.0,0.0,0.0
1495620694653711659,1.45205602645,2.62958712726,1.0486224306,0.0,0.0,0.0
1495620694704452120,1.46013323931,2.67840141711,0.989560763458,0.0,0.0,0.0
1495620694755276740,1.46899905606,2.72793286862,1.00637317024,0.0,0.0,0.0
1495620694804153416,1.47846363178,2.77708686738,1.00113811005,0.0,0.0,0.0
1495620694853373013,1.48857553211,2.82617055819,1.00228922594,0.0,0.0,0.0
1495620694902821061,1.4993014207,2.87506421809,1.00112629869,0.0,0.0,0.0
1495620694952609515,1.51064016292,2.92381942372,1.00112679534,0.0,0.0,0.0
1495620695003056991,1.52258188478,2.97246010452,1.00170266056,0.0,0.0,0.0
1495620695054719148,1.53509442012,3.02092707377,1.00112150087,0.0,0.0,0.0
1495620695103802205,1.54817395611,3.06927394607,1.00169742381,0.0,0.0,0.0
1495620695152747675,1.56178593291,3.11744342612,1.0011163212,0.0,0.0,0.0
1495620695203561748,1.57591792257,3.16546294944,1.0011169266,0.0,0.0,0.0
1495620695255134298,1.59055015145,3.21333244524,1.0011175254,0.0,0.0,0.0
1495620695303665819,1.60565376681,3.26102516227,1.00054274369,0.0,0.0,0.0
1495620695353933035,1.62121666877,3.30857034965,1.00054960108,0.0,0.0,0.0
1495620695404485413,1.63721853889,3.35596995772,1.00055638373,0.0,0.0,0.0
1495620695453817106,1.65363941701,3.40322639661,1.00056309245,0.0,0.0,0.0
1495620695503551363,1.6704607971,3.45036213707,1.00094692298,0.0,0.0,0.0
1495620695553480617,1.68764777196,3.49734835679,1.00061919796,0.0,0.0,0.0
1495620695605156113,1.70518614081,3.54421091208,1.00073842134,0.0,0.0,0.0
1495620695653680999,1.72304615338,3.59093440961,1.00041296899,0.0,0.0,0.0
1495620695703172418,1.74121471692,3.63754531193,1.00053444026,0.0,0.0,0.0
1495620695753513038,1.75967012005,3.68404274977,1.00052258969,0.0,0.0,0.0
1495620695803624298,1.77839473424,3.73043891542,1.0006428661,0.0,0.0,0.0
1495620695853505711,1.79735763141,3.77670742345,1.00007325817,0.0,0.0,0.0
1495620695903370712,1.8165516183,3.82288119361,1.00008523296,0.0,0.0,0.0
1495620695953612087,1.83596024702,3.8689657956,1.00009707722,0.0,0.0,0.0
1495620696003061811,1.85557899706,3.91500657778,1.00092936351,0.0,0.0,0.0
1495620696053186062,1.87536586926,3.9609575271,1.00060182989,0.0,0.0,0.0
1495620696104253100,1.89530052213,4.00681970118,1.00014586858,0.0,0.0,0.0
1495620696154104970,1.91538595283,4.05264703891,1.00071362744,0.0,0.0,0.0
1495620696204209037,1.93558316103,4.09839302309,1.00012444974,0.0,0.0,0.0
1495620696254139409,1.95588952621,4.14409128249,1.00013586654,0.0,0.0,0.0
1495620696303889660,1.9762796164,4.18972135596,0.999571784908,0.0,0.0,0.0
1495620696353584108,1.99676499019,4.23534122583,1.00016459975,0.0,0.0,0.0
1495620696403793566,2.01731022635,4.28090321323,0.999600204921,0.0,0.0,0.0
1495620696453635169,2.03792891833,4.32646452559,1.00019270998,0.0,0.0,0.0
1495620696503551363,2.05859547334,4.37201094877,1.00031658208,0.0,0.0,0.0
1495620696554368160,2.07928115349,4.41751760153,0.999750530643,0.0,0.0,0.0
1495620696602643783,2.09998596384,4.46301640461,0.999766023162,0.0,0.0,0.0
1495620696653775843,2.12069825646,4.50851264388,0.999781346812,0.0,0.0,0.0
1495620696703941720,2.14140790067,4.5540109214,0.999796503434,0.0,0.0,0.0
1495620696753829977,2.16210640694,4.59951509045,0.999811494849,0.0,0.0,0.0
1495620696803736254,2.18278552764,4.64502888679,0.999826322858,0.0,0.0,0.0
1495620696853290810,2.20343848594,4.69055536614,0.999840989242,0.0,0.0,0.0
1495620696903395366,2.22405872442,4.7360974708,0.999855495762,0.0,0.0,0.0
1495620696954037490,2.24464113595,4.78165747079,0.999869844161,0.0,0.0,0.0
1495620697004511436,2.26517391108,4.82724064048,0.999884036162,0.0,0.0,0.0
1495620697055022748,2.28564877892,4.87285061944,0.99989807347,0.0,0.0,0.0
1495620697103067545,2.30605798768,4.91849077726,0.999911957772,0.0,0.0,0.0
1495620697154131580,2.32640625513,4.96419038298,1.00050106473,0.0,0.0,0.0
1495620697203977164,2.34666459007,5.00989886019,0.999933002432,0.0,0.0,0.0
1495620697253840838,2.36684025324,5.05564462669,0.999946506008,0.0,0.0,0.0
1495620697303841470,2.3869287899,5.10142944962,0.999959862395,0.0,0.0,0.0
1495620697353648083,2.40692717397,5.14725444283,0.999973073198,0.0,0.0,0.0
1495620697403359921,2.42683255295,5.19312062414,0.999986140003,0.0,0.0,0.0
1495620697453584604,2.4466434903,5.23902838039,0.999999064379,0.0,0.0,0.0
1495620697503459941,2.46635314249,5.28498040809,1.00001184788,0.0,0.0,0.0
1495620697554841405,2.48595553364,5.33097898115,1.00002449204,0.0,0.0,0.0
1495620697605202837,2.50544628121,5.37702565046,1.00003699838,0.0,0.0,0.0
1495620697653703278,2.5248107376,5.42309503825,0.999473994408,0.0,0.0,0.0
1495620697704522450,2.54407970084,5.46926780443,1.00064324916,0.0,0.0,0.0
1495620697753628974,2.56321771904,5.51546417288,1.00007363705,0.0,0.0,0.0
1495620697803237238,2.58223488204,5.56171107081,1.00008560771,0.0,0.0,0.0
1495620697854735686,2.60111999065,5.60798161882,0.999522073895,0.0,0.0,0.0
1495620697904466172,2.61989465337,5.65432910232,1.00011543059,0.0,0.0,0.0
1495620697952365629,2.63854833203,5.70072603154,1.0001269457,0.0,0.0,0.0
1495620698003768954,2.65706596716,5.74714706635,0.999562961296,0.0,0.0,0.0
1495620698053679700,2.67546551941,5.79364691473,1.00015587231,0.0,0.0,0.0
1495620698103734040,2.69372381659,5.8401721,0.999591572615,0.0,0.0,0.0
1495620698153800393,2.71186027016,5.88677671346,1.00018417177,0.0,0.0,0.0
1495620698203714910,2.72985360358,5.93340651222,0.999619563607,0.0,0.0,0.0
1495620698253199765,2.74772449951,5.98011508187,1.00021185766,0.0,0.0,0.0
1495620698303711216,2.76546305302,6.02687463118,1.00022232171,0.0,0.0,0.0
1495620698353758711,2.78306989973,6.0736844853,1.00023267171,0.0,0.0,0.0
1495620698403650251,2.80054708867,6.12054344985,1.00024290889,0.0,0.0,0.0
1495620698453987937,2.81788611047,6.16742358301,0.999677660493,0.0,0.0,0.0
1495620698503488436,2.835104149,6.21437979599,1.00026932129,0.0,0.0,0.0
1495620698553913563,2.85217940294,6.261358034,0.999703784997,0.0,0.0,0.0
1495620698603197554,2.86912087781,6.30838553193,0.999719787043,0.0,0.0,0.0
1495620698653368529,2.88593803543,6.35548901794,1.00031098866,0.0,0.0,0.0
1495620698703590837,2.90261129043,6.40261361577,0.999744998193,0.0,0.0,0.0
1495620698753778435,2.91916123689,6.44981297148,1.00033592501,0.0,0.0,0.0
1495620698803518070,2.93557016749,6.49703156361,0.999769662736,0.0,0.0,0.0
1495620698853387470,2.95185849609,6.5443231303,1.00036032071,0.0,0.0,0.0
1495620698903827055,2.96801022546,6.59163159368,0.999793792521,0.0,0.0,0.0
1495620698953473591,2.98403707654,6.63898330118,0.999808813486,0.0,0.0,0.0
1495620699005383544,2.9999453287,6.68640611357,1.00039904471,0.0,0.0,0.0
1495620699053855490,3.01571608384,6.73384495657,0.999832094437,0.0,0.0,0.0
1495620699102549183,3.0313674008,6.7813543986,1.0004220719,0.0,0.0,0.0
1495620699153300469,3.0468809877,6.82887916085,0.999854870629,0.0,0.0,0.0
1495620699203131387,3.06227604996,6.87647344151,1.00044459983,0.0,0.0,0.0
1495620699252626996,3.0775361747,6.92408136518,0.999877153006,0.0,0.0,0.0
1495620699303738943,3.09268040085,6.97175720975,1.00046663933,0.0,0.0,0.0
1495620699353723581,3.10768466331,7.01941737281,0.999323578282,0.0,0.0,0.0
1495620699403498207,3.12257800489,7.06714350701,0.999919098574,0.0,0.0,0.0
1495620699454162680,3.13735388335,7.11490685274,0.999932753702,0.0,0.0,0.0
1495620699503844347,3.15201005092,7.16270777386,0.99994625999,0.0,0.0,0.0
1495620699553871519,3.16654672118,7.21054586869,0.999959619058,0.0,0.0,0.0
1495620699603913777,3.18097198108,7.25844841205,1.00054820651,0.0,0.0,0.0
1495620699654354409,3.19526136618,7.30633197544,0.999404256372,0.0,0.0,0.0
1495620699703338152,3.20944104609,7.35427914599,0.999998897273,0.0,0.0,0.0
1495620699752793323,3.2235032821,7.40226155873,1.0000116826,0.0,0.0,0.0
1495620699803135479,3.23745002472,7.45027832678,1.00002432856,0.0,0.0,0.0
1495620699853873286,3.25127612665,7.49830068557,0.999461462686,0.0,0.0,0.0
1495620699904020794,3.26500762189,7.54641098908,1.00063085403,0.0,0.0,0.0
1495620699954978112,3.27862335041,7.59452459247,1.00006137703,0.0,0.0,0.0
1495620700003783131,3.29212196384,7.64264193448,0.999498107332,0.0,0.0,0.0
1495620700054179484,3.30551854073,7.69081859247,1.00009172526,0.0,0.0,0.0
1495620700103328611,3.31880556689,7.73902618997,1.00010349876,0.0,0.0,0.0
1495620700152649827,3.33198345772,7.78726433821,1.00011514392,0.0,0.0,0.0
1495620700203978422,3.34505262444,7.8355326532,1.00012666216,0.0,0.0,0.0
1495620700253603866,3.35801493666,7.88383036312,1.00013805484,0.0,0.0,0.0
1495620700303227355,3.37087239917,7.93215667408,1.00014932335,0.0,0.0,0.0
1495620700353313264,3.38362699651,7.98051081202,1.00016046902,0.0,0.0,0.0
1495620700403505540,3.3962806931,8.02889202224,1.00017149321,0.0,0.0,0.0
1495620700453855309,3.40882894349,8.07727153148,0.999607023248,0.0,0.0,0.0
1495620700503431376,3.42128459835,8.12570554878,1.00019945399,0.0,0.0,0.0
1495620700554262211,3.43363259629,8.17413798292,0.999634679251,0.0,0.0,0.0
1495620700604322697,3.44588042271,8.22259670994,0.99965143455,0.0,0.0,0.0
1495620700654291063,3.45803612001,8.27110914213,1.00024338121,0.0,0.0,0.0
1495620700704308038,3.47009294522,8.31964676295,1.00025350166,0.0,0.0,0.0
1495620700754874244,3.48204505745,8.36818116256,0.999688137798,0.0,0.0,0.0
1495620700804185822,3.4939013059,8.41673990166,0.999704310399,0.0,0.0,0.0
1495620700853299330,3.50566961985,8.46535044999,1.00029568071,0.0,0.0,0.0
1495620700903451169,3.51733893024,8.51395576516,0.999729857101,0.0,0.0,0.0
1495620700953738779,3.52892541614,8.56261127201,1.00032094895,0.0,0.0,0.0
1495620701003484979,3.54041389978,8.61126092919,0.99975484992,0.0,0.0,0.0
1495620701055845199,3.55181110634,8.659932844,0.999770295359,0.0,0.0,0.0
1495620701104565500,3.56312302479,8.70865496997,1.00036094643,0.0,0.0,0.0
1495620701153938259,3.57433745805,8.75737055936,0.999794411428,0.0,0.0,0.0
1495620701203921361,3.58546127773,8.8061076895,0.999809425646,0.0,0.0,0.0
1495620701254695695,3.59649617319,8.85486579181,0.999824276209,0.0,0.0,0.0
1495620701303752422,3.60744953246,8.90367251311,1.00041433889,0.0,0.0,0.0
1495620701353951473,3.61831667604,8.95249892621,1.0004225959,0.0,0.0,0.0
1495620701403529496,3.62909246338,9.00131653988,0.999855388917,0.0,0.0,0.0
1495620701453926268,3.63978640066,9.05015288332,0.999869738481,0.0,0.0,0.0
1495620701504048773,3.650402802,9.09903630666,1.00045930563,0.0,0.0,0.0
1495620701554629088,3.66092855286,9.14791029863,0.999891698505,0.0,0.0,0.0
1495620701603852875,3.67137664262,9.19683108286,1.00048102629,0.0,0.0,0.0
1495620701654358460,3.6817292428,9.24571373631,0.999337808417,0.0,0.0,0.0
1495620701703379707,3.6920052888,9.29464295823,0.999933173601,0.0,0.0,0.0
1495620701753690644,3.70219895673,9.34359009827,0.999946675312,0.0,0.0,0.0
1495620701803264057,3.71231185152,9.39255467232,0.999960029853,0.0,0.0,0.0
1495620701853479940,3.72234571682,9.44153617641,0.999973238831,0.0,0.0,0.0
1495620701903093023,3.73230227743,9.49053411943,0.99998630383,0.0,0.0,0.0
1495620701953753934,3.74218323946,9.53954802278,0.999999226421,0.0,0.0,0.0
1495620702003004261,3.75198732094,9.58857801388,1.00001200816,0.0,0.0,0.0
1495620702052559446,3.76171442647,9.63762397878,1.00002465057,0.0,0.0,0.0
1495620702103243126,3.77136461793,9.68668577231,1.00003715518,0.0,0.0,0.0
1495620702154310444,3.78093795646,9.73576324996,1.00004952349,0.0,0.0,0.0
1495620702204154142,3.79043598916,9.78485598027,1.00006175699,0.0,0.0,0.0
1495620702253778470,3.79985891555,9.83396379795,1.00007385714,0.0,0.0,0.0
1495620702303787413,3.80920826403,9.88308628597,1.0000858254,0.0,0.0,0.0
1495620702354480032,3.81847962171,9.93219487934,0.999522289213,0.0,0.0,0.0
1495620702403231134,3.82769059647,9.98137428789,1.00069101755,0.0,0.0,0.0
1495620702453277233,3.83682152778,10.0305103659,0.999545510774,0.0,0.0,0.0
1495620702504123433,3.84588772809,10.0796885839,1.000138612,0.0,0.0,0.0
1495620702555455240,3.85487786903,10.1288520898,0.999574500441,0.0,0.0,0.0
1495620702603564011,3.86380152607,10.1780578298,1.00016728568,0.0,0.0,0.0
1495620702654851539,3.87265488184,10.2272768236,1.00017823557,0.0,0.0,0.0
1495620702704747200,3.88143807963,10.2765089356,1.00018906611,0.0,0.0,0.0
1495620702752997050,3.8901468372,10.3257255986,0.999624404595,0.0,0.0,0.0
1495620702803938514,3.89879203492,10.374983531,1.00021664588,0.0,0.0,0.0
1495620702854960016,3.90737014283,10.4242537196,1.00022705774,0.0,0.0,0.0
1495620702903490559,3.91588276032,10.473535788,1.00023735612,0.0,0.0,0.0
1495620702954662081,3.92433146902,10.5228293696,1.00024754224,0.0,0.0,0.0
1495620703005217741,3.93271484673,10.572134615,1.00025761733,0.0,0.0,0.0
1495620703053976805,3.94103266626,10.6214514678,1.0002675826,0.0,0.0,0.0
1495620703105181710,3.94928085972,10.6707513446,0.999702065262,0.0,0.0,0.0
1495620703152725326,3.95746822904,10.7200913335,1.00029346005,0.0,0.0,0.0
1495620703203343285,3.96558590441,10.7694141663,0.999727660642,0.0,0.0,0.0
1495620703253275962,3.97364403252,10.8187767098,1.00031877644,0.0,0.0,0.0
1495620703303864029,3.98163403535,10.868121654,0.999752701083,0.0,0.0,0.0
1495620703354125727,3.98956207997,10.917477374,0.999768169944,0.0,0.0,0.0
1495620703403675953,3.9974297095,10.9668435352,0.999783470194,0.0,0.0,0.0
1495620703454323734,4.00523844976,11.0162198118,0.999798603672,0.0,0.0,0.0
1495620703503764309,4.01298681838,11.0656063559,0.999813572194,0.0,0.0,0.0
1495620703553595856,4.02067453065,11.1150031274,0.99982837756,0.0,0.0,0.0
1495620703604104723,4.02830146243,11.164410061,0.999843021547,0.0,0.0,0.0
1495620703653668986,4.03587259354,11.213855413,1.00043287991,0.0,0.0,0.0
1495620703705126927,4.04337986533,11.26328181,0.999865560827,0.0,0.0,0.0
1495620703754144193,4.0508276209,11.3127179301,0.999879799516,0.0,0.0,0.0
1495620703803372870,4.05821722024,11.3621634887,0.999893883004,0.0,0.0,0.0
1495620703852640587,4.06555016558,11.4116181851,0.999907812982,0.0,0.0,0.0
1495620703903333137,4.07283138062,11.4611102992,1.00049696512,0.0,0.0,0.0
1495620703953289071,4.08004968777,11.5105538524,0.999353573513,0.0,0.0,0.0
1495620704003316662,4.087216891,11.5600349098,0.999948766857,0.0,0.0,0.0
1495620704054495935,4.09432852397,11.6095246579,0.999962098601,0.0,0.0,0.0
1495620704103401386,4.10138440389,11.6590230517,0.999975285029,0.0,0.0,0.0
1495620704154219161,4.10838434998,11.7085300451,0.999988327725,0.0,0.0,0.0
1495620704203438898,4.11532968296,11.758045381,1.00000122826,0.0,0.0,0.0
1495620704253781473,4.12222036667,11.8075689957,1.00001398817,0.0,0.0,0.0
1495620704303976264,4.12905770747,11.8571006404,1.000026609,0.0,0.0,0.0
1495620704354168889,4.13584165456,11.9066402561,1.00003909227,0.0,0.0,0.0
1495620704402864956,4.14257350029,11.9561876017,1.00005143946,0.0,0.0,0.0
1495620704452050890,4.14925468017,12.0057424209,1.00006365208,0.0,0.0,0.0
1495620704503248671,4.15588054785,12.0552762506,0.999500357578,0.0,0.0,0.0
1495620704553889748,4.16246224848,12.1048749297,1.00066932497,0.0,0.0,0.0
1495620704603888354,4.16898433509,12.1544237261,0.999524054643,0.0,0.0,0.0
1495620704655800403,4.17545871001,12.2040086981,1.00011738974,0.0,0.0,0.0
1495620704703682819,4.18188142635,12.2536009674,1.0001288835,0.0,0.0,0.0
1495620704754288905,4.1882537577,12.3032003092,1.00014025197,0.0,0.0,0.0
1495620704804972584,4.19457273277,12.3527780422,0.999576122533,0.0,0.0,0.0
1495620704853623743,4.20084624492,12.4023914232,1.00016889009,0.0,0.0,0.0
1495620704903487347,4.20707194085,12.4520113779,1.00017982249,0.0,0.0,0.0
1495620704954823554,4.21325120859,12.5016376806,1.00019063573,0.0,0.0,0.0
1495620705003385804,4.21937963832,12.5512418385,0.999625957112,0.0,0.0,0.0
1495620705053799199,4.22546321358,12.6008813504,1.00021818147,0.0,0.0,0.0
1495620705102739780,4.2314953027,12.6504986882,0.999653202606,0.0,0.0,0.0
1495620705153028228,4.23748344712,12.7001511597,1.00024512999,0.0,0.0,0.0
1495620705203793412,4.24342393845,12.7498098637,1.00025523138,0.0,0.0,0.0
1495620705253275054,4.2493180056,12.7994746023,1.00026522266,0.0,0.0,0.0
1495620705304000568,4.25516290555,12.8491166815,0.999699731043,0.0,0.0,0.0
1495620705353231829,4.26096593745,12.8987934446,1.00029115127,0.0,0.0,0.0
1495620705402885909,4.26672091666,12.9484473194,0.999725377031,0.0,0.0,0.0
1495620705453193353,4.27243249109,12.9981069993,0.999741143724,0.0,0.0,0.0
1495620705503395058,4.27810049447,13.0477724559,0.99975673856,0.0,0.0,0.0
1495620705554405246,4.28372708833,13.0974723495,1.00034753741,0.0,0.0,0.0
1495620705604291199,4.28930612794,13.1471491065,0.999781148557,0.0,0.0,0.0
